Node Number	Directional Deformation (m)
1	0.
2	0.
3	0.
4	0.
5	5.0995e-005
6	5.3544e-004
7	1.5348e-003
8	3.0767e-003
9	5.1676e-003
10	7.8051e-003
11	1.0982e-002
12	1.469e-002
13	1.8918e-002
14	2.3656e-002
15	2.8893e-002
16	3.4618e-002
17	4.082e-002
18	4.7488e-002
19	5.4613e-002
20	6.2183e-002
21	7.0188e-002
22	7.8619e-002
23	8.7465e-002
24	9.6717e-002
25	0.10637
26	0.1164
27	0.12681
28	0.13759
29	0.14873
30	0.16021
31	0.17204
32	0.18419
33	0.19667
34	0.20946
35	0.22255
36	0.23594
37	0.24961
38	0.26356
39	0.27777
40	0.29225
41	0.30698
42	0.32195
43	0.33715
44	0.35258
45	0.36823
46	0.38408
47	0.40014
48	0.41639
49	0.43282
50	0.44944
51	0.46622
52	0.48316
53	0.50026
54	0.51751
55	0.5349
56	0.55242
57	0.57006
58	0.58783
59	0.60571
60	0.6237
61	0.64178
62	0.65996
63	0.67823
64	0.69658
65	0.715
66	0.7335
67	0.75206
68	0.77068
69	0.78936
70	0.80808
71	0.82685
72	0.84566
73	0.86451
74	0.88339
75	0.9023
76	0.92123
77	0.94019
78	0.95916
79	0.97815
80	0.99715
81	1.0162
82	1.0352
83	1.0542
84	1.0732
85	1.0923
86	1.1113
87	1.1303
88	1.1494
89	0.
90	1.1684
91	0.
92	0.
93	0.
94	0.
95	0.
96	0.
97	0.
98	5.0995e-005
99	5.3544e-004
100	1.5348e-003
101	3.0767e-003
102	5.1676e-003
103	7.8051e-003
104	1.0982e-002
105	1.469e-002
106	1.8918e-002
107	2.3656e-002
108	2.8893e-002
109	3.4618e-002
110	4.082e-002
111	4.7488e-002
112	5.4613e-002
113	6.2183e-002
114	7.0188e-002
115	7.8619e-002
116	8.7465e-002
117	9.6717e-002
118	0.10637
119	0.1164
120	0.12681
121	0.13759
122	0.14873
123	0.16021
124	0.17204
125	0.18419
126	0.19667
127	0.20946
128	0.22255
129	0.23594
130	0.24961
131	0.26356
132	0.27777
133	0.29225
134	0.30698
135	0.32195
136	0.33715
137	0.35258
138	0.36823
139	0.38408
140	0.40014
141	0.41639
142	0.43282
143	0.44944
144	0.46622
145	0.48316
146	0.50026
147	0.51751
148	0.5349
149	0.55242
150	0.57006
151	0.58783
152	0.60571
153	0.6237
154	0.64178
155	0.65996
156	0.67823
157	0.69658
158	0.715
159	0.7335
160	0.75206
161	0.77068
162	0.78936
163	0.80808
164	0.82685
165	0.84566
166	0.86451
167	0.88339
168	0.9023
169	0.92123
170	0.94019
171	0.95916
172	0.97815
173	0.99715
174	1.0162
175	1.0352
176	1.0542
177	1.0732
178	1.0923
179	1.1113
180	1.1303
181	1.1494
182	1.1684
183	1.8127e-004
184	7.9578e-004
185	1.9094e-003
186	3.5469e-003
187	5.7169e-003
188	8.4192e-003
189	1.1649e-002
190	1.5398e-002
191	1.9659e-002
192	2.4422e-002
193	2.9676e-002
194	3.5413e-002
195	4.1623e-002
196	4.8295e-002
197	5.5419e-002
198	6.2986e-002
199	7.0986e-002
200	7.9409e-002
201	8.8246e-002
202	9.7487e-002
203	0.10712
204	0.11714
205	0.12754
206	0.13831
207	0.14943
208	0.1609
209	0.17271
210	0.18485
211	0.19731
212	0.21008
213	0.22315
214	0.23652
215	0.25018
216	0.26411
217	0.27831
218	0.29277
219	0.30748
220	0.32243
221	0.33762
222	0.35303
223	0.36866
224	0.3845
225	0.40054
226	0.41678
227	0.4332
228	0.44979
229	0.46656
230	0.48349
231	0.50057
232	0.51781
233	0.53518
234	0.55269
235	0.57032
236	0.58807
237	0.60594
238	0.62391
239	0.64199
240	0.66015
241	0.67841
242	0.69675
243	0.71516
244	0.73365
245	0.7522
246	0.77081
247	0.78947
248	0.80819
249	0.82695
250	0.84575
251	0.86459
252	0.88346
253	0.90236
254	0.92129
255	0.94024
256	0.95921
257	0.97819
258	0.99719
259	1.0162
260	1.0352
261	1.0542
262	1.0733
263	1.0923
264	1.1113
265	1.1304
266	1.1494
267	2.3819e-004
268	9.5118e-004
269	2.1644e-003
270	3.8904e-003
271	6.1363e-003
272	8.902e-003
273	1.2184e-002
274	1.5976e-002
275	2.027e-002
276	2.5059e-002
277	3.0333e-002
278	3.6084e-002
279	4.2303e-002
280	4.898e-002
281	5.6106e-002
282	6.3672e-002
283	7.1669e-002
284	8.0087e-002
285	8.8917e-002
286	9.8149e-002
287	0.10778
288	0.11779
289	0.12817
290	0.13892
291	0.15003
292	0.16149
293	0.17329
294	0.18541
295	0.19786
296	0.21062
297	0.22368
298	0.23703
299	0.25067
300	0.26459
301	0.27877
302	0.29322
303	0.30792
304	0.32285
305	0.33803
306	0.35342
307	0.36904
308	0.38487
309	0.40089
310	0.41711
311	0.43352
312	0.4501
313	0.46686
314	0.48377
315	0.50085
316	0.51807
317	0.53543
318	0.55292
319	0.57054
320	0.58828
321	0.60614
322	0.6241
323	0.64216
324	0.66032
325	0.67857
326	0.69689
327	0.7153
328	0.73377
329	0.75231
330	0.77092
331	0.78957
332	0.80828
333	0.82703
334	0.84583
335	0.86466
336	0.88353
337	0.90242
338	0.92134
339	0.94029
340	0.95925
341	0.97823
342	0.99722
343	1.0162
344	1.0352
345	1.0543
346	1.0733
347	1.0923
348	1.1113
349	1.1304
350	1.1494
351	2.6495e-004
352	1.0436e-003
353	2.3343e-003
354	4.1357e-003
355	6.4492e-003
356	9.2733e-003
357	1.2604e-002
358	1.6436e-002
359	2.0763e-002
360	2.5578e-002
361	3.0872e-002
362	3.6637e-002
363	4.2866e-002
364	4.955e-002
365	5.6679e-002
366	6.4246e-002
367	7.2241e-002
368	8.0655e-002
369	8.948e-002
370	9.8706e-002
371	0.10833
372	0.11833
373	0.1287
374	0.13945
375	0.15054
376	0.16199
377	0.17377
378	0.18589
379	0.19832
380	0.21107
381	0.22412
382	0.23746
383	0.25109
384	0.26499
385	0.27917
386	0.2936
387	0.30828
388	0.32321
389	0.33837
390	0.35376
391	0.36936
392	0.38517
393	0.40119
394	0.4174
395	0.43379
396	0.45037
397	0.46711
398	0.48401
399	0.50108
400	0.51829
401	0.53564
402	0.55312
403	0.57073
404	0.58846
405	0.60631
406	0.62426
407	0.64232
408	0.66046
409	0.6787
410	0.69702
411	0.71542
412	0.73388
413	0.75242
414	0.77101
415	0.78966
416	0.80836
417	0.82711
418	0.8459
419	0.86472
420	0.88358
421	0.90247
422	0.92139
423	0.94033
424	0.95929
425	0.97826
426	0.99725
427	1.0162
428	1.0353
429	1.0543
430	1.0733
431	1.0923
432	1.1114
433	1.1304
434	1.1494
435	2.7947e-004
436	1.0998e-003
437	2.4467e-003
438	4.3074e-003
439	6.6771e-003
440	9.5513e-003
441	1.2925e-002
442	1.6793e-002
443	2.115e-002
444	2.5988e-002
445	3.13e-002
446	3.708e-002
447	4.3319e-002
448	5.0009e-002
449	5.7142e-002
450	6.471e-002
451	7.2705e-002
452	8.1117e-002
453	8.9938e-002
454	9.916e-002
455	0.10877
456	0.11877
457	0.12914
458	0.13987
459	0.15096
460	0.1624
461	0.17417
462	0.18628
463	0.1987
464	0.21144
465	0.22448
466	0.23781
467	0.25143
468	0.26533
469	0.27949
470	0.29391
471	0.30859
472	0.3235
473	0.33865
474	0.35403
475	0.36962
476	0.38543
477	0.40143
478	0.41763
479	0.43402
480	0.45058
481	0.46731
482	0.48421
483	0.50126
484	0.51847
485	0.53581
486	0.55328
487	0.57089
488	0.58861
489	0.60645
490	0.62439
491	0.64244
492	0.66058
493	0.67881
494	0.69712
495	0.71551
496	0.73397
497	0.7525
498	0.77109
499	0.78973
500	0.80843
501	0.82717
502	0.84595
503	0.86477
504	0.88363
505	0.90252
506	0.92143
507	0.94036
508	0.95932
509	0.97829
510	0.99727
511	1.0163
512	1.0353
513	1.0543
514	1.0733
515	1.0923
516	1.1114
517	1.1304
518	1.1494
519	2.8793e-004
520	1.1346e-003
521	2.5201e-003
522	4.4244e-003
523	6.8374e-003
524	9.7515e-003
525	1.3161e-002
526	1.7059e-002
527	2.144e-002
528	2.6298e-002
529	3.1626e-002
530	3.7417e-002
531	4.3665e-002
532	5.0361e-002
533	5.7498e-002
534	6.5068e-002
535	7.3063e-002
536	8.1474e-002
537	9.0292e-002
538	9.9511e-002
539	0.10912
540	0.11911
541	0.12947
542	0.1402
543	0.15129
544	0.16272
545	0.17448
546	0.18658
547	0.199
548	0.21173
549	0.22476
550	0.23809
551	0.2517
552	0.26558
553	0.27974
554	0.29415
555	0.30882
556	0.32373
557	0.33887
558	0.35424
559	0.36983
560	0.38562
561	0.40162
562	0.41781
563	0.43419
564	0.45075
565	0.46748
566	0.48437
567	0.50141
568	0.51861
569	0.53594
570	0.55341
571	0.57101
572	0.58873
573	0.60656
574	0.6245
575	0.64254
576	0.66067
577	0.6789
578	0.6972
579	0.71559
580	0.73404
581	0.75256
582	0.77115
583	0.78979
584	0.80848
585	0.82722
586	0.846
587	0.86481
588	0.88367
589	0.90255
590	0.92146
591	0.94039
592	0.95934
593	0.97831
594	0.99729
595	1.0163
596	1.0353
597	1.0543
598	1.0733
599	1.0923
600	1.1114
601	1.1304
602	1.1494
603	2.9288e-004
604	1.1557e-003
605	2.566e-003
606	4.4998e-003
607	6.9432e-003
608	9.8861e-003
609	1.3321e-002
610	1.7241e-002
611	2.1641e-002
612	2.6514e-002
613	3.1854e-002
614	3.7655e-002
615	4.3909e-002
616	5.061e-002
617	5.775e-002
618	6.5322e-002
619	7.3317e-002
620	8.1727e-002
621	9.0544e-002
622	9.976e-002
623	0.10937
624	0.11935
625	0.12971
626	0.14044
627	0.15152
628	0.16294
629	0.17471
630	0.1868
631	0.19921
632	0.21193
633	0.22496
634	0.23828
635	0.25189
636	0.26577
637	0.27992
638	0.29433
639	0.30899
640	0.32389
641	0.33903
642	0.35439
643	0.36997
644	0.38576
645	0.40176
646	0.41794
647	0.43432
648	0.45087
649	0.46759
650	0.48448
651	0.50152
652	0.51871
653	0.53604
654	0.5535
655	0.57109
656	0.58881
657	0.60663
658	0.62457
659	0.64261
660	0.66074
661	0.67896
662	0.69726
663	0.71564
664	0.73409
665	0.75261
666	0.77119
667	0.78983
668	0.80852
669	0.82725
670	0.84603
671	0.86484
672	0.88369
673	0.90257
674	0.92148
675	0.94041
676	0.95936
677	0.97833
678	0.99731
679	1.0163
680	1.0353
681	1.0543
682	1.0733
683	1.0924
684	1.1114
685	1.1304
686	1.1494
687	2.9551e-004
688	1.167e-003
689	2.5913e-003
690	4.542e-003
691	7.0033e-003
692	9.9635e-003
693	1.3414e-002
694	1.7348e-002
695	2.1759e-002
696	2.6641e-002
697	3.1989e-002
698	3.7796e-002
699	4.4054e-002
700	5.0759e-002
701	5.7901e-002
702	6.5474e-002
703	7.3469e-002
704	8.1879e-002
705	9.0695e-002
706	9.991e-002
707	0.10951
708	0.1195
709	0.12986
710	0.14058
711	0.15166
712	0.16308
713	0.17484
714	0.18693
715	0.19934
716	0.21206
717	0.22508
718	0.2384
719	0.252
720	0.26588
721	0.28003
722	0.29443
723	0.30909
724	0.32399
725	0.33912
726	0.35448
727	0.37006
728	0.38585
729	0.40184
730	0.41802
731	0.43439
732	0.45094
733	0.46766
734	0.48454
735	0.50158
736	0.51877
737	0.53609
738	0.55356
739	0.57115
740	0.58886
741	0.60668
742	0.62461
743	0.64265
744	0.66078
745	0.67899
746	0.69729
747	0.71567
748	0.73412
749	0.75264
750	0.77122
751	0.78985
752	0.80854
753	0.82727
754	0.84605
755	0.86486
756	0.88371
757	0.90259
758	0.92149
759	0.94042
760	0.95937
761	0.97834
762	0.99732
763	1.0163
764	1.0353
765	1.0543
766	1.0733
767	1.0924
768	1.1114
769	1.1304
770	1.1494
771	2.9634e-004
772	1.1706e-003
773	2.5993e-003
774	4.5556e-003
775	7.0228e-003
776	9.9887e-003
777	1.3444e-002
778	1.7383e-002
779	2.1798e-002
780	2.6684e-002
781	3.2034e-002
782	3.7842e-002
783	4.4103e-002
784	5.0808e-002
785	5.7951e-002
786	6.5524e-002
787	7.3519e-002
788	8.1929e-002
789	9.0745e-002
790	9.996e-002
791	0.10956
792	0.11955
793	0.1299
794	0.14063
795	0.1517
796	0.16312
797	0.17488
798	0.18697
799	0.19938
800	0.2121
801	0.22512
802	0.23844
803	0.25204
804	0.26592
805	0.28006
806	0.29447
807	0.30912
808	0.32402
809	0.33915
810	0.35451
811	0.37009
812	0.38588
813	0.40187
814	0.41805
815	0.43442
816	0.45096
817	0.46768
818	0.48456
819	0.5016
820	0.51879
821	0.53611
822	0.55357
823	0.57116
824	0.58887
825	0.6067
826	0.62463
827	0.64266
828	0.66079
829	0.67901
830	0.69731
831	0.71568
832	0.73413
833	0.75265
834	0.77123
835	0.78986
836	0.80855
837	0.82728
838	0.84605
839	0.86487
840	0.88371
841	0.90259
842	0.9215
843	0.94043
844	0.95937
845	0.97834
846	0.99732
847	1.0163
848	1.0353
849	1.0543
850	1.0733
851	1.0924
852	1.1114
853	1.1304
854	1.1494
855	2.9551e-004
856	1.167e-003
857	2.5913e-003
858	4.542e-003
859	7.0033e-003
860	9.9635e-003
861	1.3414e-002
862	1.7348e-002
863	2.1759e-002
864	2.6641e-002
865	3.1989e-002
866	3.7796e-002
867	4.4054e-002
868	5.0759e-002
869	5.7901e-002
870	6.5474e-002
871	7.3469e-002
872	8.1879e-002
873	9.0695e-002
874	9.991e-002
875	0.10951
876	0.1195
877	0.12986
878	0.14058
879	0.15166
880	0.16308
881	0.17484
882	0.18693
883	0.19934
884	0.21206
885	0.22508
886	0.2384
887	0.252
888	0.26588
889	0.28003
890	0.29443
891	0.30909
892	0.32399
893	0.33912
894	0.35448
895	0.37006
896	0.38585
897	0.40184
898	0.41802
899	0.43439
900	0.45094
901	0.46766
902	0.48454
903	0.50158
904	0.51877
905	0.53609
906	0.55356
907	0.57115
908	0.58886
909	0.60668
910	0.62461
911	0.64265
912	0.66078
913	0.67899
914	0.69729
915	0.71567
916	0.73412
917	0.75264
918	0.77122
919	0.78985
920	0.80854
921	0.82727
922	0.84605
923	0.86486
924	0.88371
925	0.90259
926	0.92149
927	0.94042
928	0.95937
929	0.97834
930	0.99732
931	1.0163
932	1.0353
933	1.0543
934	1.0733
935	1.0924
936	1.1114
937	1.1304
938	1.1494
939	2.9288e-004
940	1.1557e-003
941	2.566e-003
942	4.4998e-003
943	6.9432e-003
944	9.8861e-003
945	1.3321e-002
946	1.7241e-002
947	2.1641e-002
948	2.6514e-002
949	3.1854e-002
950	3.7655e-002
951	4.3909e-002
952	5.061e-002
953	5.775e-002
954	6.5322e-002
955	7.3317e-002
956	8.1727e-002
957	9.0544e-002
958	9.976e-002
959	0.10937
960	0.11935
961	0.12971
962	0.14044
963	0.15152
964	0.16294
965	0.17471
966	0.1868
967	0.19921
968	0.21193
969	0.22496
970	0.23828
971	0.25189
972	0.26577
973	0.27992
974	0.29433
975	0.30899
976	0.32389
977	0.33903
978	0.35439
979	0.36997
980	0.38576
981	0.40176
982	0.41794
983	0.43432
984	0.45087
985	0.46759
986	0.48448
987	0.50152
988	0.51871
989	0.53604
990	0.5535
991	0.57109
992	0.58881
993	0.60663
994	0.62457
995	0.64261
996	0.66074
997	0.67896
998	0.69726
999	0.71564
1000	0.73409
1001	0.75261
1002	0.77119
1003	0.78983
1004	0.80852
1005	0.82725
1006	0.84603
1007	0.86484
1008	0.88369
1009	0.90257
1010	0.92148
1011	0.94041
1012	0.95936
1013	0.97833
1014	0.99731
1015	1.0163
1016	1.0353
1017	1.0543
1018	1.0733
1019	1.0924
1020	1.1114
1021	1.1304
1022	1.1494
1023	2.8793e-004
1024	1.1346e-003
1025	2.5201e-003
1026	4.4244e-003
1027	6.8374e-003
1028	9.7515e-003
1029	1.3161e-002
1030	1.7059e-002
1031	2.144e-002
1032	2.6298e-002
1033	3.1626e-002
1034	3.7417e-002
1035	4.3665e-002
1036	5.0361e-002
1037	5.7498e-002
1038	6.5068e-002
1039	7.3063e-002
1040	8.1474e-002
1041	9.0292e-002
1042	9.9511e-002
1043	0.10912
1044	0.11911
1045	0.12947
1046	0.1402
1047	0.15129
1048	0.16272
1049	0.17448
1050	0.18658
1051	0.199
1052	0.21173
1053	0.22476
1054	0.23809
1055	0.2517
1056	0.26558
1057	0.27974
1058	0.29415
1059	0.30882
1060	0.32373
1061	0.33887
1062	0.35424
1063	0.36983
1064	0.38562
1065	0.40162
1066	0.41781
1067	0.43419
1068	0.45075
1069	0.46748
1070	0.48437
1071	0.50141
1072	0.51861
1073	0.53594
1074	0.55341
1075	0.57101
1076	0.58873
1077	0.60656
1078	0.6245
1079	0.64254
1080	0.66067
1081	0.6789
1082	0.6972
1083	0.71559
1084	0.73404
1085	0.75256
1086	0.77115
1087	0.78979
1088	0.80848
1089	0.82722
1090	0.846
1091	0.86481
1092	0.88367
1093	0.90255
1094	0.92146
1095	0.94039
1096	0.95934
1097	0.97831
1098	0.99729
1099	1.0163
1100	1.0353
1101	1.0543
1102	1.0733
1103	1.0923
1104	1.1114
1105	1.1304
1106	1.1494
1107	2.7947e-004
1108	1.0998e-003
1109	2.4467e-003
1110	4.3074e-003
1111	6.6771e-003
1112	9.5513e-003
1113	1.2925e-002
1114	1.6793e-002
1115	2.115e-002
1116	2.5988e-002
1117	3.13e-002
1118	3.708e-002
1119	4.3319e-002
1120	5.0009e-002
1121	5.7142e-002
1122	6.471e-002
1123	7.2705e-002
1124	8.1117e-002
1125	8.9938e-002
1126	9.916e-002
1127	0.10877
1128	0.11877
1129	0.12914
1130	0.13987
1131	0.15096
1132	0.1624
1133	0.17417
1134	0.18628
1135	0.1987
1136	0.21144
1137	0.22448
1138	0.23781
1139	0.25143
1140	0.26533
1141	0.27949
1142	0.29391
1143	0.30859
1144	0.3235
1145	0.33865
1146	0.35403
1147	0.36962
1148	0.38543
1149	0.40143
1150	0.41763
1151	0.43402
1152	0.45058
1153	0.46731
1154	0.48421
1155	0.50126
1156	0.51847
1157	0.53581
1158	0.55328
1159	0.57089
1160	0.58861
1161	0.60645
1162	0.62439
1163	0.64244
1164	0.66058
1165	0.67881
1166	0.69712
1167	0.71551
1168	0.73397
1169	0.7525
1170	0.77109
1171	0.78973
1172	0.80843
1173	0.82717
1174	0.84595
1175	0.86477
1176	0.88363
1177	0.90252
1178	0.92143
1179	0.94036
1180	0.95932
1181	0.97829
1182	0.99727
1183	1.0163
1184	1.0353
1185	1.0543
1186	1.0733
1187	1.0923
1188	1.1114
1189	1.1304
1190	1.1494
1191	2.6495e-004
1192	1.0436e-003
1193	2.3343e-003
1194	4.1357e-003
1195	6.4492e-003
1196	9.2733e-003
1197	1.2604e-002
1198	1.6436e-002
1199	2.0763e-002
1200	2.5578e-002
1201	3.0872e-002
1202	3.6637e-002
1203	4.2866e-002
1204	4.955e-002
1205	5.6679e-002
1206	6.4246e-002
1207	7.2241e-002
1208	8.0655e-002
1209	8.948e-002
1210	9.8706e-002
1211	0.10833
1212	0.11833
1213	0.1287
1214	0.13945
1215	0.15054
1216	0.16199
1217	0.17377
1218	0.18589
1219	0.19832
1220	0.21107
1221	0.22412
1222	0.23746
1223	0.25109
1224	0.26499
1225	0.27917
1226	0.2936
1227	0.30828
1228	0.32321
1229	0.33837
1230	0.35376
1231	0.36936
1232	0.38517
1233	0.40119
1234	0.4174
1235	0.43379
1236	0.45037
1237	0.46711
1238	0.48401
1239	0.50108
1240	0.51829
1241	0.53564
1242	0.55312
1243	0.57073
1244	0.58846
1245	0.60631
1246	0.62426
1247	0.64232
1248	0.66046
1249	0.6787
1250	0.69702
1251	0.71542
1252	0.73388
1253	0.75242
1254	0.77101
1255	0.78966
1256	0.80836
1257	0.82711
1258	0.8459
1259	0.86472
1260	0.88358
1261	0.90247
1262	0.92139
1263	0.94033
1264	0.95929
1265	0.97826
1266	0.99725
1267	1.0162
1268	1.0353
1269	1.0543
1270	1.0733
1271	1.0923
1272	1.1114
1273	1.1304
1274	1.1494
1275	2.3819e-004
1276	9.5118e-004
1277	2.1644e-003
1278	3.8904e-003
1279	6.1363e-003
1280	8.902e-003
1281	1.2184e-002
1282	1.5976e-002
1283	2.027e-002
1284	2.5059e-002
1285	3.0333e-002
1286	3.6084e-002
1287	4.2303e-002
1288	4.898e-002
1289	5.6106e-002
1290	6.3672e-002
1291	7.1669e-002
1292	8.0087e-002
1293	8.8917e-002
1294	9.8149e-002
1295	0.10778
1296	0.11779
1297	0.12817
1298	0.13892
1299	0.15003
1300	0.16149
1301	0.17329
1302	0.18541
1303	0.19786
1304	0.21062
1305	0.22368
1306	0.23703
1307	0.25067
1308	0.26459
1309	0.27877
1310	0.29322
1311	0.30792
1312	0.32285
1313	0.33803
1314	0.35342
1315	0.36904
1316	0.38487
1317	0.40089
1318	0.41711
1319	0.43352
1320	0.4501
1321	0.46686
1322	0.48377
1323	0.50085
1324	0.51807
1325	0.53543
1326	0.55292
1327	0.57054
1328	0.58828
1329	0.60614
1330	0.6241
1331	0.64216
1332	0.66032
1333	0.67857
1334	0.69689
1335	0.7153
1336	0.73377
1337	0.75231
1338	0.77092
1339	0.78957
1340	0.80828
1341	0.82703
1342	0.84583
1343	0.86466
1344	0.88353
1345	0.90242
1346	0.92134
1347	0.94029
1348	0.95925
1349	0.97823
1350	0.99722
1351	1.0162
1352	1.0352
1353	1.0543
1354	1.0733
1355	1.0923
1356	1.1113
1357	1.1304
1358	1.1494
1359	1.8127e-004
1360	7.9578e-004
1361	1.9094e-003
1362	3.5469e-003
1363	5.7169e-003
1364	8.4192e-003
1365	1.1649e-002
1366	1.5398e-002
1367	1.9659e-002
1368	2.4422e-002
1369	2.9676e-002
1370	3.5413e-002
1371	4.1623e-002
1372	4.8295e-002
1373	5.5419e-002
1374	6.2986e-002
1375	7.0986e-002
1376	7.9409e-002
1377	8.8246e-002
1378	9.7487e-002
1379	0.10712
1380	0.11714
1381	0.12754
1382	0.13831
1383	0.14943
1384	0.1609
1385	0.17271
1386	0.18485
1387	0.19731
1388	0.21008
1389	0.22315
1390	0.23652
1391	0.25018
1392	0.26411
1393	0.27831
1394	0.29277
1395	0.30748
1396	0.32243
1397	0.33762
1398	0.35303
1399	0.36866
1400	0.3845
1401	0.40054
1402	0.41678
1403	0.4332
1404	0.44979
1405	0.46656
1406	0.48349
1407	0.50057
1408	0.51781
1409	0.53518
1410	0.55269
1411	0.57032
1412	0.58807
1413	0.60594
1414	0.62391
1415	0.64199
1416	0.66015
1417	0.67841
1418	0.69675
1419	0.71516
1420	0.73365
1421	0.7522
1422	0.77081
1423	0.78947
1424	0.80819
1425	0.82695
1426	0.84575
1427	0.86459
1428	0.88346
1429	0.90236
1430	0.92129
1431	0.94024
1432	0.95921
1433	0.97819
1434	0.99719
1435	1.0162
1436	1.0352
1437	1.0542
1438	1.0733
1439	1.0923
1440	1.1113
1441	1.1304
1442	1.1494
1443	5.0995e-005
1444	5.3544e-004
1445	1.5348e-003
1446	3.0767e-003
1447	5.1676e-003
1448	7.8051e-003
1449	1.0982e-002
1450	1.469e-002
1451	1.8918e-002
1452	2.3656e-002
1453	2.8893e-002
1454	3.4618e-002
1455	4.082e-002
1456	4.7488e-002
1457	5.4613e-002
1458	6.2183e-002
1459	7.0188e-002
1460	7.8619e-002
1461	8.7465e-002
1462	9.6717e-002
1463	0.10637
1464	0.1164
1465	0.12681
1466	0.13759
1467	0.14873
1468	0.16021
1469	0.17204
1470	0.18419
1471	0.19667
1472	0.20946
1473	0.22255
1474	0.23594
1475	0.24961
1476	0.26356
1477	0.27777
1478	0.29225
1479	0.30698
1480	0.32195
1481	0.33715
1482	0.35258
1483	0.36823
1484	0.38408
1485	0.40014
1486	0.41639
1487	0.43282
1488	0.44944
1489	0.46622
1490	0.48316
1491	0.50026
1492	0.51751
1493	0.5349
1494	0.55242
1495	0.57006
1496	0.58783
1497	0.60571
1498	0.6237
1499	0.64178
1500	0.65996
1501	0.67823
1502	0.69658
1503	0.715
1504	0.7335
1505	0.75206
1506	0.77068
1507	0.78936
1508	0.80808
1509	0.82685
1510	0.84566
1511	0.86451
1512	0.88339
1513	0.9023
1514	0.92123
1515	0.94019
1516	0.95916
1517	0.97815
1518	0.99715
1519	1.0162
1520	1.0352
1521	1.0542
1522	1.0732
1523	1.0923
1524	1.1113
1525	1.1303
1526	1.1494
1527	0.
1528	0.
1529	0.
1530	0.
1531	0.
1532	0.
1533	0.
1534	0.
1535	0.
1536	0.
1537	0.
1538	0.
1539	0.
1540	0.
1541	0.
1542	0.
